Time (s),W,X,Y,Z
0.000000000,-0.9489494,-0.003741171,0.05075171,-0.3058318
0.998690128,-0.9480139,-0.003408001,0.0506677,-0.3087369
1.999851227,-0.9482911,-0.003842192,0.05113519,-0.3078023
2.998540878,-0.9485359,-0.003783131,0.05089002,-0.3070882
3.999702930,-0.9488116,-0.00393839,0.050909,-0.3062302
5.000864983,-0.9696338,-0.009406236,0.05000054,-0.2320551
5.999554634,-0.9917586,-0.01485174,0.04084307,-0.1056112
7.000717163,-0.9971054,-0.01924816,0.04009975,0.02073646
7.999407291,-0.988226,-0.02245878,0.03634452,0.1349515
9.000569820,-0.9624475,-0.02888809,0.03785383,0.260874
9.999259949,-0.9238963,-0.03321295,0.03433836,0.3751815
11.000422478,-0.870069,-0.03731592,0.03048327,0.4871202
11.999113083,-0.8026296,-0.04051658,0.02592868,0.5916921
13.000276089,-0.801441,-0.03935569,0.02395263,0.5934623
13.998966694,-0.8057186,-0.03201368,0.02757361,0.5879285
15.000130177,-0.8012984,-0.03765814,0.02045655,0.5938956
15.998821259,-0.8057125,-0.03482122,0.01828175,0.5881397
16.999985218,-0.7700179,-0.03744562,0.01514606,0.6340888
17.998676300,-0.6856005,-0.0407754,0.01171213,0.7244169
18.999840260,-0.5906773,-0.04251525,0.008024841,0.8036516
19.998532295,-0.4879257,-0.04362008,0.003554185,0.8698511
20.999696255,-0.3755653,-0.04366865,-0.00163554,0.923942
21.998388767,-0.2567748,-0.04346534,-0.006637362,0.9637225
22.999553204,-0.1329216,-0.04215122,-0.01191895,0.9884537
24.000718117,-0.006114257,-0.04056876,-0.01712697,0.997322
24.999410629,0.1193296,-0.03799141,-0.02168802,0.9901891
26.000575066,0.243623,-0.03494365,-0.02608528,0.9671474
26.999268532,0.3606376,-0.03143601,-0.03024538,0.9298737
28.000433445,0.4720692,-0.02753231,-0.03380259,0.8785658
28.999126911,0.5609526,-0.02383749,-0.03604569,0.8246772
30.000292301,0.5793595,-0.02123295,-0.03489035,0.8119742
30.998985291,0.5794941,-0.01970284,-0.03469038,0.8119254
32.000150681,0.5795979,-0.01840146,-0.03419449,0.8119028
32.998844624,0.579614,-0.0176158,-0.03390736,0.8119206
34.000010490,0.6064783,-0.01618707,-0.03590494,0.7919978
34.998704433,0.6907451,-0.01371247,-0.03896339,0.7195782
35.999870300,0.7734655,-0.01016132,-0.0411079,0.6297505
36.998564243,0.8458939,-0.00584029,-0.04237561,0.5284519
37.999730587,0.9027189,-0.001310658,-0.04287176,0.4241302
38.998424530,0.9479544,0.003658592,-0.04273091,0.3101142
39.999591351,0.9783839,0.00859824,-0.04168976,0.1938579
40.998285770,0.9946258,0.01347176,-0.04018866,0.07450277
41.999452591,0.9961848,0.01830821,-0.03806296,-0.04959447
42.998147488,0.9824759,0.02309917,-0.03564623,-0.1719436
43.999314308,0.9534139,0.02736084,-0.03234198,-0.292976
45.000481606,0.9121358,0.03109135,-0.02894563,-0.4035237
45.999176979,0.8556674,0.03445907,-0.02489042,-0.5124979
47.000344753,0.8141896,0.03515514,-0.02162969,-0.576211
47.999040127,0.8168843,0.0342171,-0.01946842,-0.5725189
49.000207901,0.8173515,0.03376795,-0.01807813,-0.571924
49.998903751,0.8173381,0.03356314,-0.01735169,-0.5719779
51.000072479,0.8150036,0.03391024,-0.01619728,-0.5753127
51.998768330,0.7553698,0.03743904,-0.01395742,-0.6514965
52.999937057,0.6671566,0.04019259,-0.01073244,-0.7414845
53.998634338,0.5710869,0.04170634,-0.006777804,-0.817742
54.999802589,0.4672736,0.04241312,-0.002169724,-0.8811807
55.998499870,0.355761,0.04264174,0.002675073,-0.931792
56.999669075,0.2378161,0.04212365,0.007540121,-0.9686279
57.998367310,0.1171141,0.04080769,0.01238406,-0.9905015
58.999536514,-0.00867277,0.03915924,0.01724897,-0.9973572
59.998234272,-0.1310642,0.03662026,0.02183735,-0.9887528
60.999404430,-0.253545,0.03380584,0.02611024,-0.9646337
61.998102188,-0.3718952,0.03037388,0.03004839,-0.9254708
62.999272823,-0.4833865,0.02645345,0.03332462,-0.8724418
63.997970581,-0.5620093,0.0235736,0.03441654,-0.8240346
64.999141216,-0.5571712,0.02062204,0.03373464,-0.8274205
66.000311852,-0.5566825,0.01923614,0.03318213,-0.8278051
66.999010563,-0.5566992,0.01833744,0.03297526,-0.8278226
68.000180721,-0.5568138,0.01785619,0.03287611,-0.8277599
68.998879433,-0.620211,0.01564076,0.03613432,-0.7812911
70.000050545,-0.7103459,0.01274953,0.03904099,-0.7002497
70.998750210,-0.7926919,0.00901902,0.04085771,-0.6054062
71.999920845,-0.8603348,0.004699476,0.04174301,-0.5046656
72.998620033,-0.9164702,-0.0001256868,0.04211383,-0.3936197
73.999791622,-0.9571173,-0.004968135,0.04155232,-0.2807187
74.998490810,-0.9845117,-0.009970584,0.04064598,-0.16004
75.999662399,-0.9966549,-0.01472139,0.03905536,-0.03955751
76.998362064,-0.9937686,-0.01939064,0.03675278,0.08558518
77.999534130,-0.9760555,-0.02384639,0.03395631,0.2054789
78.998234272,-0.9427189,-0.02800681,0.03064789,0.3258603
79.999405861,-0.8969668,-0.03151411,0.02683721,0.4363082
80.998106480,-0.8433995,-0.03434058,0.02316446,0.5325308
81.999279022,-0.832548,-0.03347822,0.02079022,0.5494893
82.997979641,-0.8322272,-0.03295479,0.01901175,0.5500712
83.999152184,-0.8321393,-0.03257548,0.01793301,0.5502629
84.997853756,-0.8321368,-0.03238682,0.0173806,0.5502955
85.999026775,-0.8132334,-0.03450909,0.01584853,0.5777864
86.997727871,-0.7418081,-0.03778045,0.01361033,0.6668853
87.998901367,-0.6516452,-0.04020824,0.01017004,0.7551596
89.000075340,-0.5546846,-0.04147497,0.006003761,0.8289732
89.998776913,-0.4467441,-0.04215531,0.001398225,0.8917782
90.999950886,-0.3293605,-0.04228708,-0.003657867,0.9414604
91.998653412,-0.2063103,-0.04151025,-0.008767034,0.97584
92.999828339,-0.07976414,-0.04015147,-0.01373038,0.9942156
93.998530865,0.04550326,-0.03818456,-0.01845049,0.9963727
94.999705315,0.1691053,-0.0356173,-0.02288563,0.9829744
95.998407841,0.2900757,-0.03242793,-0.02707165,0.9543056
96.999583244,0.4054376,-0.02903903,-0.03067933,0.9112978
97.998286247,0.508503,-0.02502237,-0.03358994,0.8580781
98.999461174,0.5449872,-0.0227557,-0.03292064,0.8354729
99.998165131,0.5457147,-0.02052754,-0.03288789,0.835057
100.999340057,0.5453851,-0.01914765,-0.03261389,0.8353159
101.998043537,0.5453961,-0.01843083,-0.03251597,0.8353285
102.999219418,0.5584405,-0.01742822,-0.03361322,0.8266428
103.997923374,0.6430253,-0.01513155,-0.03707055,0.7625896
104.999099255,0.7334582,-0.01186941,-0.03949991,0.6759924
105.997803211,0.811716,-0.007958611,-0.04113612,0.5796459
106.998979092,0.8778272,-0.003426177,-0.0418458,0.4735866
107.997683048,0.9302746,0.001340412,-0.04191193,0.3598033
108.998859406,0.9674616,0.006355503,-0.0413166,0.2426896
109.997564316,0.990327,0.01133723,-0.04009314,0.1189288
110.998740673,0.9974321,0.01636207,-0.03801858,-0.006628252
111.997445107,0.9888658,0.02099307,-0.03576489,-0.1305841
112.998621941,0.9647818,0.02540025,-0.03255676,-0.2532171
113.997327328,0.9256011,0.02936923,-0.02910394,-0.3717265
114.998504162,0.8746235,0.03250447,-0.02530776,-0.479546
115.999681473,0.837772,0.03340527,-0.02217304,-0.5414411
116.998386860,0.8399287,0.03300211,-0.01996531,-0.5382005
117.999564648,0.8405395,0.0319212,-0.01778374,-0.537388
118.998270035,0.8404342,0.03125065,-0.01713973,-0.5376129
119.999448776,0.8391579,0.03211385,-0.01620689,-0.5395809
120.998154640,0.7843939,0.03553387,-0.01454863,-0.6163439
121.999332905,0.7002384,0.03817761,-0.01168235,-0.7104224
122.998039246,0.607602,0.03980188,-0.008035495,-0.7910743
123.999217510,0.5028951,0.04088308,-0.003539323,-0.8614177
124.997924805,0.3926702,0.04113445,0.001095641,-0.9169212
125.999104023,0.2739641,0.0406993,0.00596292,-0.9591034
126.997810841,0.1540791,0.03965712,0.01069583,-0.985495
127.998990059,0.02829255,0.03817082,0.01552061,-0.9970603
128.997697830,-0.0930916,0.03592794,0.01994061,-0.9931129
129.998877048,-0.2196892,0.03316369,0.02425331,-0.9729729
130.997584820,-0.3381241,0.02997127,0.02808714,-0.9384096
131.998764992,-0.4523224,0.02629643,0.03137955,-0.8890196
132.997472763,-0.5217121,0.02318485,0.03250013,-0.8502061
133.998652935,-0.517706,0.02083329,0.03144061,-0.8527519
134.997360706,-0.5170833,0.01955109,0.03111291,-0.853172
135.998541355,-0.5170699,0.01871298,0.03103418,-0.8532016
136.997249126,-0.5204002,0.01771334,0.03149387,-0.8511791
137.998429775,-0.600259,0.01596858,0.03477783,-0.7967762
138.997138500,-0.6952458,0.01298469,0.03782663,-0.7153053
139.998319149,-0.7800131,0.009385429,0.03938577,-0.6217459
140.999499321,-0.8507542,0.005049788,0.04026021,-0.5207674
141.998209000,-0.9100168,0.0003523676,0.04071613,-0.4084594
142.999389172,-0.9531403,-0.004307484,0.0403203,-0.2941209
143.998098850,-0.9820432,-0.009201301,0.03920664,-0.1749205
144.999279976,-0.9962912,-0.01404982,0.0376046,-0.04919417
145.997989178,-0.994991,-0.01860143,0.03556756,0.07077751
146.999170303,-0.9782431,-0.02305265,0.03297278,0.1950627
147.997879505,-0.9453977,-0.02703832,0.02977763,0.3181714
148.999061584,-0.9004722,-0.03031554,0.02634601,0.4291438
149.997771263,-0.8556981,-0.03141068,0.02358007,0.5127044
150.998953342,-0.8584339,-0.03099494,0.02108911,0.5082455
151.997663498,-0.8587968,-0.03075712,0.01937361,0.5077149
152.998846054,-0.8587918,-0.0304672,0.01809377,0.5077883
153.997556686,-0.8588772,-0.03033977,0.01772784,0.5076643
154.998739243,-0.8192004,-0.0336521,0.01582225,0.5693465
155.997449398,-0.7453738,-0.03633245,0.01322591,0.6629862
156.998631954,-0.6566481,-0.03874071,0.009964923,0.7508934
157.997343540,-0.5605175,-0.03977685,0.005973948,0.8251242
158.998526573,-0.4507722,-0.04055593,0.001394783,0.8898232
159.997238159,-0.3359502,-0.04056792,-0.003441431,0.9392058
160.998421669,-0.2145577,-0.03990746,-0.008315052,0.9741309
161.997133732,-0.08925499,-0.03870075,-0.01326542,0.9934725
162.998317719,0.03655364,-0.03675847,-0.01777461,0.9968072
163.997029781,0.1603114,-0.03453435,-0.02203403,0.9845049
164.998213291,0.2821183,-0.03151023,-0.0259962,0.9567488
165.996926308,0.3980444,-0.02804049,-0.02951096,0.9146208
166.998109818,0.4938308,-0.02467582,-0.03194395,0.8666772
167.996822834,0.495405,-0.02240975,-0.03086461,0.8658792
168.998007298,0.4946625,-0.02072789,-0.03030922,0.866365
169.996719837,0.4948812,-0.01965078,-0.03024259,0.8662675
170.997904301,0.4949514,-0.01917906,-0.03023948,0.8662382
171.999088764,0.5425082,-0.0175224,-0.03279983,0.8372154
172.997802258,0.6376455,-0.01527667,-0.03584236,0.7671492
173.998986721,0.7272763,-0.01218086,-0.0381348,0.6827111
174.997700214,0.806394,-0.008162846,-0.03958682,0.5871308
175.998884678,0.8734825,-0.003684694,-0.04029988,0.4816826
176.997597694,0.9253204,0.0009947692,-0.04028852,0.3725397
177.998783112,0.964427,0.005927248,-0.03982894,0.2547289
178.997496128,0.9885107,0.01078754,-0.03867453,0.1336494
179.998681545,0.9974501,0.01541661,-0.03696987,0.01080607
180.997395515,0.9910932,0.01992367,-0.03475858,-0.1129463
181.998580933,0.9690201,0.02420875,-0.03194515,-0.2366876
182.997294903,0.9339005,0.02786998,-0.02857625,-0.35052
183.998480797,0.8865384,0.03095836,-0.02498364,-0.4572689
184.997193813,0.869791,0.03047134,-0.02242532,-0.4885284
185.998380661,0.8689312,0.03041833,-0.02044453,-0.4901457
186.997094154,0.8689672,0.03012497,-0.01925186,-0.4901486
187.998281002,0.8689823,0.03017782,-0.01858011,-0.4901444
188.996995449,0.8535757,0.03200671,-0.01714511,-0.5164474
189.998182297,0.7886497,0.03550559,-0.01535536,-0.6108706
190.996896267,0.7058852,0.03785375,-0.01236288,-0.7048177
191.998083115,0.6152894,0.03953109,-0.008584618,-0.785118
192.996798038,0.5109292,0.04056945,-0.004155561,-0.856689
193.997984886,0.4014792,0.04084188,0.0003065136,-0.9131122
194.996700287,0.283063,0.04056221,0.005195227,-0.9564678
195.997888088,0.1612939,0.03958861,0.01000427,-0.9843498
196.996603489,0.03748691,0.03806927,0.01483323,-0.9967714
197.997791290,-0.08713168,0.03598429,0.01933684,-0.9936634
198.996507168,-0.2099141,0.03330158,0.02362102,-0.9751394
199.997695446,-0.3301417,0.03023512,0.02756785,-0.9412544
200.996411324,-0.4392706,0.0266807,0.03072099,-0.895552
201.997599602,-0.4732187,0.02421703,0.03014712,-0.8781779
202.998787880,-0.4744647,0.02209583,0.03016666,-0.8775607
203.997504234,-0.4744918,0.02091875,0.03004269,-0.8775792
204.998692036,-0.4745871,0.02010731,0.02990141,-0.8775514
205.997408867,-0.487595,0.01918237,0.03089542,-0.8703772
206.998597145,-0.5792375,0.01708919,0.03465762,-0.812169
207.997313976,-0.6763374,0.01435744,0.03714861,-0.7332185
208.998503208,-0.7609245,0.0107373,0.03888689,-0.6449763
209.997219563,-0.8361151,0.006428212,0.04008089,-0.5439592
210.998408794,-0.898138,0.00170433,0.04051068,-0.433972
211.997126102,-0.9458236,-0.003261468,0.04014062,-0.3168966
212.998314857,-0.9775594,-0.008122815,0.03938765,-0.1984642
213.997032166,-0.9946169,-0.01295013,0.03786271,-0.07591867
214.998221874,-0.9961676,-0.01756793,0.03580882,0.05183686
215.996939182,-0.9822956,-0.02210093,0.03342415,0.1735437
216.998128414,-0.951791,-0.0262694,0.03030328,0.2985184
217.996846676,-0.9092563,-0.02948536,0.02694414,0.410226
218.998036385,-0.8830982,-0.02968473,0.02420061,0.4640028
219.996754169,-0.8846114,-0.0297108,0.02242051,0.4611994
220.997944355,-0.8850817,-0.02878759,0.01971295,0.460479
221.996662617,-0.8848207,-0.02925289,0.01894636,0.4609832
222.997853279,-0.8828471,-0.02974234,0.01799872,0.464758
223.996571064,-0.8336426,-0.03333229,0.01669229,0.5479764
224.997762680,-0.7601622,-0.03626934,0.01432047,0.6459572
225.996480942,-0.67465,-0.03791885,0.01091044,0.7347913
226.997671604,-0.5772582,-0.03932611,0.00669708,0.8135166
227.996390820,-0.4701093,-0.03989626,0.00215807,0.8797889
228.997581959,-0.3605989,-0.03988261,-0.002488646,0.9300535
229.996302128,-0.2386062,-0.0394643,-0.00733853,0.9685471
230.997493267,-0.1186782,-0.03821286,-0.01182118,0.9904258
231.996213436,0.008458532,-0.03655109,-0.01664858,0.9974682
232.997405052,0.1322748,-0.03412801,-0.02095721,0.9886997
233.996125221,0.2565259,-0.03153453,-0.02513283,0.9639481
234.997316837,0.3720325,-0.02800269,-0.02851452,0.9255389
235.996037006,0.4614788,-0.02522901,-0.03000604,0.88438
236.997229576,0.4559401,-0.02254526,-0.02954473,0.8873359
237.998421192,0.4554976,-0.02110744,-0.02945002,0.8876017
238.997141838,0.4557124,-0.02012759,-0.02920997,0.8875222
239.998334408,0.4557066,-0.01971967,-0.02925333,0.8875329
240.997055054,0.5205734,-0.01816659,-0.03243474,0.8510281
241.998247623,0.6195802,-0.01586244,-0.03557038,0.7818128
242.996968269,0.7138277,-0.01252058,-0.03767191,0.6967796
243.998160839,0.792354,-0.008563871,-0.0389537,0.6059803
244.996881485,0.8615068,-0.004212156,-0.03967978,0.5028336
245.998074532,0.9178217,0.0003860336,-0.03992152,0.3906882
246.996795177,0.9584216,0.005226015,-0.0392383,0.2765659
247.997988701,0.9855966,0.01001773,-0.03857292,0.1537488
248.996709824,0.9971247,0.01472422,-0.03686518,0.02817845
249.997902870,0.9934877,0.01891926,-0.03451409,-0.08978216
250.996623516,0.9751846,0.02317208,-0.03172505,-0.2099984
251.997817516,0.9409274,0.02708846,-0.02866078,-0.3312523
252.996538639,0.8989701,0.02988583,-0.02511817,-0.4323844
253.997732639,0.8899592,0.02941042,-0.02263805,-0.4508025
254.996454716,0.8896293,0.02928913,-0.02089461,-0.4515453
255.997648716,0.8895989,0.02916864,-0.0197358,-0.4516649
256.996370316,0.8895208,0.02909228,-0.01910773,-0.4518508
257.997564316,0.8732724,0.03108731,-0.01791459,-0.4824269
258.996286869,0.8111472,0.034452,-0.0160857,-0.5807083
259.997481823,0.7300718,0.03706067,-0.01323775,-0.6797603
260.996204376,0.641073,0.03853157,-0.009454935,-0.7642506
261.997398853,0.5413988,0.03959467,-0.005143797,-0.8378072
262.996121407,0.4334871,0.03999446,-0.0005083829,-0.8983968
263.997316360,0.3176548,0.03973597,0.00416608,-0.9455827
264.996039867,0.1976801,0.03884032,0.009002245,-0.9777324
265.997235775,0.07419307,0.03747295,0.01363407,-0.9947528
266.995958805,-0.05005086,0.03550724,0.01821376,-0.996258
267.997154713,-0.1736835,0.03315206,0.02235819,-0.9822744
268.995878220,-0.2946645,0.03013108,0.02628762,-0.9529961
269.997074127,-0.4058256,0.02684722,0.02939602,-0.9112345
270.995798111,-0.444732,0.02440074,0.02895895,-0.8929766
271.996994019,-0.4455975,0.0222271,0.02911134,-0.8925969
272.995718479,-0.4454647,0.02101356,0.02905219,-0.8926944
273.996914387,-0.4456893,0.02007411,0.02889967,-0.8926089
274.995638847,-0.4609315,0.01900603,0.03020651,-0.8848143
275.996834755,-0.5530348,0.0172496,0.03349445,-0.8302776
276.998031616,-0.6511583,0.01468734,0.03612809,-0.7557114
277.996756077,-0.7401398,0.01153585,0.03777166,-0.6687758
278.997952461,-0.814449,0.00729552,0.0388754,-0.5759653
279.996677399,-0.8790087,0.002630338,0.03941272,-0.471605
280.997874737,-0.9313504,-0.00180222,0.0392965,-0.3573048
281.996599197,-0.968855,-0.006677273,0.03879735,-0.2374824
282.997796535,-0.9906682,-0.01158286,0.03760205,-0.1168586
283.996520996,-0.9975061,-0.01622054,0.03576977,0.00817696
284.997718334,-0.988485,-0.02056587,0.03334662,0.1341267
285.996443272,-0.9645799,-0.0247638,0.0303978,0.2543151
286.997640610,-0.925252,-0.02817922,0.02726135,0.3728261
287.996366024,-0.8938903,-0.02937382,0.02442875,0.4428636
288.997563362,-0.8967757,-0.02881543,0.02217485,0.4371486
289.996289253,-0.8969452,-0.02865185,0.02053192,0.4368919
290.997487068,-0.8969446,-0.02827596,0.02001036,0.4369418
291.996212959,-0.8954825,-0.02920625,0.01872653,0.4399262
292.997410774,-0.8493785,-0.03241637,0.01727366,0.5232921
293.996136665,-0.7784836,-0.03535475,0.01511213,0.623789
294.997335434,-0.6977066,-0.03761746,0.0117105,0.7129384
295.996061802,-0.6013454,-0.0390043,0.007729904,0.7958834
296.997260571,-0.4984111,-0.03971486,0.00333036,0.8640751
297.995986938,-0.3862371,-0.03999851,-0.001420069,0.9196993
298.997186184,-0.2666776,-0.03944891,-0.006311673,0.9612048
299.995913506,-0.1425287,-0.03841174,-0.01115451,0.9872757
300.997112751,-0.01691558,-0.03683421,-0.01569038,0.9973659
301.995840073,0.1085641,-0.03446203,-0.02003602,0.9915909
302.997039318,0.2321446,-0.03065737,-0.02323838,0.9701838
303.995766640,0.3479796,-0.02821422,-0.02736565,0.9348758
304.996966362,0.4223745,-0.02536062,-0.02831128,0.9037603
305.995693684,0.4161617,-0.02299706,-0.02795038,0.9067122
306.996893883,0.4158675,-0.02159911,-0.02789525,0.9068832
307.995621681,0.4158645,-0.02077022,-0.02773373,0.906909
308.996821404,0.4176846,-0.01994884,-0.02843057,0.9060689
309.995549202,0.4992692,-0.01820575,-0.03162638,0.8637282
310.996749878,0.6028082,-0.01858089,-0.03613039,0.7947323
311.995478153,0.6956626,-0.0195997,-0.0430696,0.7144524
312.996677876,0.7797163,-0.01418177,-0.0437654,0.6217343
313.995406628,0.8509211,-0.009127889,-0.04466967,0.5200791
314.996606827,0.9082381,-0.00355826,-0.04424401,0.4120207
315.995335102,0.9522001,0.0004224651,-0.04331435,0.2967597
316.996535301,0.9811589,0.007471359,-0.04261578,0.1791168
317.995264053,0.9959098,0.01282843,-0.04137857,0.05398891
318.996465206,0.994682,0.0189301,-0.03813067,-0.07364187
319.995193958,0.9789958,0.02323756,-0.03522291,-0.1908255
320.996394634,0.9480762,0.02655021,-0.03192828,-0.3099272
321.995123863,0.9104635,0.02955238,-0.02856556,-0.4074243
322.996325016,0.9090343,0.02833704,-0.02605364,-0.4108559
323.997526169,0.9093829,0.02816013,-0.02451294,-0.4101908
324.996255398,0.9093897,0.02805571,-0.02348703,-0.4102428
325.997456551,0.9094561,0.02796492,-0.02284147,-0.4101384
326.996186733,0.888185,0.03082395,-0.02164357,-0.4542427
327.997388363,0.8284591,0.03429863,-0.01982761,-0.5556201
328.996118069,0.7515428,0.0374287,-0.0169524,-0.6558376
329.997320652,0.6614141,0.03809088,-0.01215609,-0.7466998
330.996050358,0.5657344,0.03933524,-0.007544282,-0.8215644
331.997252941,0.4557221,0.04011169,-0.002952909,-0.8873147
332.995983601,0.3409302,0.04011849,0.001886834,-0.9374333
333.997186184,0.2204269,0.03957786,0.006738373,-0.9728453
334.995916843,0.0979408,0.03839873,0.01153533,-0.9926871
335.997119904,-0.02947486,0.03664533,0.01611203,-0.9970739
336.995850563,-0.1524584,0.03435794,0.02044363,-0.985792
337.997053623,-0.27726,0.03148875,0.02455007,-0.9582068
338.995785236,-0.3832695,0.02838153,0.02759011,-0.920959
339.996988297,-0.3953479,0.02597707,0.02699073,-0.9159282
340.995719433,-0.3955089,0.02419494,0.02688006,-0.9159108
341.996922970,-0.3957347,0.02310841,0.02690104,-0.9158407
342.995654106,-0.3958174,0.02243071,0.02683267,-0.9158238
343.996858120,-0.3958698,0.02203014,0.02691296,-0.9158084
344.995589256,-0.395948,0.0217797,0.0268711,-0.9157819
